#FILE:                 ;000393_K06_20_1450_Air-static.sle
#FORMAT:               ;NETZSCH5                         
#IDENTITY:             ;000393                           
#DECIMAL:              ;POINT                            
#SEPARATOR:            ;SEMICOLON                        
#MTYPE:                ;DIL                              
#MSUBTYPE:             ;                                 
#INSTRUMENT:           ;NETZSCH DIL 402 C                
#PROJECT:              ;                                 
#DATE/TIME:            ;22.06.2021 12:24:13              
#CORR. FILE:           ;                                 
#LABORATORY:           ;ЌЊ                               
#OPERATOR:             ;Ћа«®ў Ќ.                         
#REMARK:               ;                                 
#SAMPLE:               ;K06_20                           
#SAMPLE LENGTH /mm:    ;2.170                            
#MATERIAL:             ;бв ­¤ ав­л© ®Ўа §Ґж              
#MEASMODE:             ;Standard Expansion               
#PURGE GAS 1:          ;                                 
#FLOW RATE 1 /(ml/min):;0                                
#CORR. CODE:           ;000                              
#RANGE:                ;40.0/20.0(K/¬Ё­)/1450.0          
#SEGMENT:              ;S1/1                             

##Temp./шC;Time/min;dL/Lo
800,138	37,84	8,76E-01
800,33502	37,85	8,76E-01
800,526	37,86	8,76E-01
800,72601	37,87	8,76E-01
800,91998	37,88	8,75E-01
801,11603	37,89	8,75E-01
801,31299	37,9	8,75E-01
801,51898	37,91	8,75E-01
801,70898	37,92	8,73E-01
801,90698	37,93	8,73E-01
802,112	37,94	8,74E-01
802,30902	37,95	8,73E-01
802,50702	37,96	8,73E-01
802,70203	37,97	8,73E-01
802,90302	37,98	8,72E-01
803,11401	37,99	8,72E-01
803,31598	38	8,72E-01
803,51801	38,01	8,72E-01
803,69299	38,02	8,71E-01
803,90198	38,03	8,71E-01
804,11298	38,04	8,71E-01
804,29401	38,05	8,71E-01
804,5	38,06	8,70E-01
804,69501	38,07	8,70E-01
804,89502	38,08	8,70E-01
805,099	38,09	8,70E-01
805,28302	38,1	8,69E-01
805,48401	38,11	8,69E-01
805,68402	38,12	8,69E-01
805,89398	38,13	8,68E-01
806,09198	38,14	8,68E-01
806,28699	38,15	8,67E-01
806,48999	38,16	8,67E-01
806,68201	38,17	8,67E-01
806,88397	38,18	8,67E-01
807,07202	38,19	8,66E-01
807,284	38,2	8,66E-01
807,48798	38,21	8,66E-01
807,67603	38,22	8,66E-01
807,88202	38,23	8,65E-01
808,08301	38,24	8,65E-01
808,28003	38,25	8,64E-01
808,47998	38,26	8,63E-01
808,66803	38,27	8,62E-01
808,87799	38,28	8,63E-01
809,06897	38,29	8,63E-01
809,26898	38,3	8,63E-01
809,47101	38,31	8,61E-01
809,672	38,32	8,62E-01
809,86298	38,33	8,62E-01
810,06299	38,34	8,61E-01
810,26501	38,35	8,61E-01
810,45898	38,36	8,60E-01
810,65698	38,37	8,60E-01
810,86401	38,38	8,59E-01
811,06201	38,39	8,59E-01
811,24402	38,4	8,59E-01
811,45099	38,41	8,58E-01
811,65002	38,42	8,58E-01
811,84198	38,43	8,58E-01
812,05603	38,44	8,57E-01
812,25299	38,45	8,57E-01
812,44897	38,46	8,56E-01
812,646	38,47	8,56E-01
812,84399	38,48	8,56E-01
813,039	38,49	8,56E-01
813,24298	38,5	8,55E-01
813,46198	38,51	8,54E-01
813,65002	38,52	8,54E-01
813,836	38,53	8,54E-01
814,04303	38,54	8,53E-01
814,23199	38,55	8,53E-01
814,43298	38,56	8,53E-01
814,64502	38,57	8,52E-01
814,841	38,58	8,52E-01
815,03998	38,59	8,51E-01
815,22302	38,6	8,51E-01
815,42902	38,61	8,51E-01
815,63098	38,62	8,50E-01
815,82898	38,63	8,50E-01
816,04199	38,64	8,50E-01
816,21503	38,65	8,49E-01
816,41498	38,66	8,49E-01
816,617	38,67	8,49E-01
816,815	38,68	8,48E-01
817,01398	38,69	8,48E-01
817,22601	38,7	8,47E-01
817,41101	38,71	8,46E-01
817,61902	38,72	8,46E-01
817,81403	38,73	8,45E-01
818,01898	38,74	8,45E-01
818,21301	38,75	8,43E-01
818,40997	38,76	8,43E-01
818,60797	38,77	8,44E-01
818,80603	38,78	8,43E-01
818,99902	38,79	8,43E-01
819,21002	38,8	8,42E-01
819,41199	38,81	8,42E-01
819,60101	38,82	8,40E-01
819,79303	38,83	8,40E-01
819,992	38,84	8,40E-01
820,203	38,85	8,39E-01
820,396	38,86	8,39E-01
820,58502	38,87	8,39E-01
820,79797	38,88	8,38E-01
820,98499	38,89	8,38E-01
821,19202	38,9	8,37E-01
821,38397	38,91	8,37E-01
821,58301	38,92	8,36E-01
821,79102	38,93	8,36E-01
821,98199	38,94	8,35E-01
822,18402	38,95	8,34E-01
822,375	38,96	8,34E-01
822,58698	38,97	8,34E-01
822,78003	38,98	8,33E-01
822,97699	38,99	8,33E-01
823,17499	39	8,32E-01
823,38599	39,01	8,31E-01
823,58801	39,02	8,30E-01
823,77002	39,03	8,30E-01
823,96997	39,04	8,30E-01
824,16699	39,05	8,29E-01
824,35901	39,06	8,28E-01
824,56201	39,07	8,28E-01
824,75897	39,08	8,27E-01
824,95001	39,09	8,27E-01
825,15802	39,1	8,25E-01
825,35901	39,11	8,26E-01
825,56	39,12	8,25E-01
825,76398	39,13	8,25E-01
825,96198	39,14	8,24E-01
826,15601	39,15	8,24E-01
826,34998	39,16	8,23E-01
826,55701	39,17	8,23E-01
826,74701	39,18	8,22E-01
826,96399	39,19	8,21E-01
827,14398	39,2	8,21E-01
827,34302	39,21	8,20E-01
827,55103	39,22	8,20E-01
827,74902	39,23	8,19E-01
827,94598	39,24	8,19E-01
828,14203	39,25	8,18E-01
828,33698	39,26	8,17E-01
828,54102	39,27	8,17E-01
828,73901	39,28	8,16E-01
828,953	39,29	8,16E-01
829,12299	39,3	8,15E-01
829,328	39,31	8,15E-01
829,53699	39,32	8,14E-01
829,73297	39,33	8,13E-01
829,93597	39,34	8,12E-01
830,133	39,35	8,12E-01
830,32898	39,36	8,11E-01
830,53497	39,37	8,11E-01
830,72803	39,38	8,10E-01
830,93103	39,39	8,09E-01
831,11902	39,4	8,09E-01
831,32501	39,41	8,08E-01
831,51501	39,42	8,08E-01
831,711	39,43	8,07E-01
831,914	39,44	8,06E-01
832,125	39,45	8,05E-01
832,323	39,46	8,05E-01
832,51599	39,47	8,04E-01
832,72198	39,48	8,04E-01
832,91998	39,49	8,03E-01
833,12799	39,5	8,02E-01
833,30902	39,51	8,02E-01
833,50702	39,52	8,01E-01
833,70599	39,53	8,00E-01
833,909	39,54	7,99E-01
834,10303	39,55	7,99E-01
834,31097	39,56	7,99E-01
834,49597	39,57	7,97E-01
834,70898	39,58	7,97E-01
834,89398	39,59	7,96E-01
835,09497	39,6	7,96E-01
835,28998	39,61	7,95E-01
835,48901	39,62	7,94E-01
835,69598	39,63	7,93E-01
835,896	39,64	7,92E-01
836,091	39,65	7,92E-01
836,27698	39,66	7,91E-01
836,48499	39,67	7,90E-01
836,69202	39,68	7,90E-01
836,87701	39,69	7,89E-01
837,07898	39,7	7,87E-01
837,27197	39,71	7,87E-01
837,479	39,72	7,86E-01
837,68402	39,73	7,86E-01
837,88	39,74	7,85E-01
838,08002	39,75	7,84E-01
838,27301	39,76	7,84E-01
838,48199	39,77	7,83E-01
838,67603	39,78	7,82E-01
838,87	39,79	7,81E-01
839,07098	39,8	7,81E-01
839,26398	39,81	7,80E-01
839,47699	39,82	7,79E-01
839,672	39,83	7,79E-01
839,86298	39,84	7,78E-01
840,06799	39,85	7,77E-01
840,25201	39,86	7,76E-01
840,46997	39,87	7,76E-01
840,65198	39,88	7,75E-01
840,84698	39,89	7,74E-01
841,05402	39,9	7,72E-01
841,25403	39,91	7,72E-01
841,45697	39,92	7,71E-01
841,659	39,93	7,71E-01
841,85199	39,94	7,70E-01
842,07202	39,95	7,69E-01
842,24799	39,96	7,68E-01
842,45203	39,97	7,68E-01
842,65503	39,98	7,67E-01
842,84698	39,99	7,66E-01
843,03497	40	7,65E-01
843,25098	40,01	7,64E-01
843,43799	40,02	7,64E-01
843,63202	40,03	7,62E-01
843,83899	40,04	7,62E-01
844,03998	40,05	7,61E-01
844,24298	40,06	7,60E-01
844,43103	40,07	7,59E-01
844,63898	40,08	7,59E-01
844,84698	40,09	7,57E-01
845,02899	40,1	7,57E-01
845,22998	40,11	7,56E-01
845,41998	40,12	7,55E-01
845,62903	40,13	7,54E-01
845,83002	40,14	7,54E-01
846,021	40,15	7,52E-01
846,22699	40,16	7,51E-01
846,43103	40,17	7,51E-01
846,62201	40,18	7,50E-01
846,83301	40,19	7,49E-01
847,02197	40,2	7,48E-01
847,22101	40,21	7,48E-01
847,41803	40,22	7,46E-01
847,625	40,23	7,45E-01
847,80701	40,24	7,45E-01
848,02002	40,25	7,44E-01
848,21698	40,26	7,43E-01
848,41101	40,27	7,42E-01
848,60498	40,28	7,41E-01
848,80499	40,29	7,41E-01
849,008	40,3	7,39E-01
849,21399	40,31	7,39E-01
849,40698	40,32	7,38E-01
849,62	40,33	7,37E-01
849,80298	40,34	7,37E-01
849,99597	40,35	7,35E-01
850,20001	40,36	7,34E-01
850,39203	40,37	7,33E-01
850,59698	40,38	7,33E-01
850,80103	40,39	7,32E-01
850,99298	40,4	7,30E-01
851,19702	40,41	7,30E-01
851,388	40,42	7,28E-01
851,58398	40,43	7,27E-01
851,79303	40,44	7,26E-01
851,98499	40,45	7,25E-01
852,18597	40,46	7,24E-01
852,38501	40,47	7,24E-01
852,57397	40,48	7,23E-01
852,77502	40,49	7,22E-01
852,97699	40,5	7,21E-01
853,16602	40,51	7,19E-01
853,37097	40,52	7,19E-01
853,55701	40,53	7,18E-01
853,76599	40,54	7,16E-01
853,97699	40,55	7,16E-01
854,16998	40,56	7,15E-01
854,37299	40,57	7,14E-01
854,565	40,58	7,13E-01
854,76599	40,59	7,12E-01
854,94299	40,6	7,10E-01
855,15002	40,61	7,10E-01
855,35699	40,62	7,09E-01
855,54999	40,63	7,08E-01
855,75897	40,64	7,07E-01
855,95398	40,65	7,06E-01
856,16101	40,66	7,05E-01
856,36102	40,67	7,04E-01
856,55499	40,68	7,03E-01
856,74902	40,69	7,02E-01
856,94397	40,7	7,01E-01
857,14398	40,71	7,00E-01
857,35498	40,72	6,99E-01
857,54401	40,73	6,98E-01
857,73999	40,74	6,97E-01
857,94897	40,75	6,96E-01
858,14001	40,76	6,95E-01
858,34601	40,77	6,94E-01
858,53802	40,78	6,93E-01
858,73199	40,79	6,91E-01
858,93799	40,8	6,90E-01
859,13898	40,81	6,90E-01
859,33197	40,82	6,88E-01
859,53302	40,83	6,87E-01
859,72498	40,84	6,87E-01
859,93597	40,85	6,85E-01
860,14001	40,86	6,84E-01
860,323	40,87	6,83E-01
860,52002	40,88	6,82E-01
860,72198	40,89	6,81E-01
860,922	40,9	6,80E-01
861,125	40,91	6,79E-01
861,31702	40,92	6,77E-01
861,52002	40,93	6,77E-01
861,71899	40,94	6,75E-01
861,91998	40,95	6,74E-01
862,12799	40,96	6,73E-01
862,32202	40,97	6,72E-01
862,51703	40,98	6,71E-01
862,70099	40,99	6,71E-01
862,91498	41	6,69E-01
863,112	41,01	6,68E-01
863,30701	41,02	6,66E-01
863,513	41,03	6,65E-01
863,698	41,04	6,65E-01
863,90802	41,05	6,63E-01
864,091	41,06	6,62E-01
864,29999	41,07	6,61E-01
864,49902	41,08	6,60E-01
864,70001	41,09	6,58E-01
864,89697	41,1	6,58E-01
865,09003	41,11	6,56E-01
865,29102	41,12	6,55E-01
865,50201	41,13	6,53E-01
865,698	41,14	6,53E-01
865,89899	41,15	6,52E-01
866,08801	41,16	6,50E-01
866,27698	41,17	6,50E-01
866,47601	41,18	6,48E-01
866,68298	41,19	6,47E-01
866,87097	41,2	6,45E-01
867,073	41,21	6,45E-01
867,27802	41,22	6,43E-01
867,474	41,23	6,42E-01
867,685	41,24	6,41E-01
867,87201	41,25	6,40E-01
868,08002	41,26	6,39E-01
868,26801	41,27	6,37E-01
868,479	41,28	6,36E-01
868,68701	41,29	6,35E-01
868,86603	41,3	6,34E-01
869,07098	41,31	6,33E-01
869,27002	41,32	6,32E-01
869,46301	41,33	6,30E-01
869,672	41,34	6,29E-01
869,862	41,35	6,28E-01
870,07001	41,36	6,27E-01
870,26801	41,37	6,25E-01
870,46198	41,38	6,24E-01
870,66602	41,39	6,23E-01
870,85303	41,4	6,22E-01
871,05298	41,41	6,21E-01
871,25403	41,42	6,19E-01
871,448	41,43	6,17E-01
871,664	41,44	6,17E-01
871,85199	41,45	6,15E-01
872,04999	41,46	6,14E-01
872,23901	41,47	6,13E-01
872,44702	41,48	6,11E-01
872,65503	41,49	6,10E-01
872,84003	41,5	6,09E-01
873,05103	41,51	6,08E-01
873,24298	41,52	6,07E-01
873,435	41,53	6,05E-01
873,63202	41,54	6,04E-01
873,83801	41,55	6,02E-01
874,03003	41,56	6,01E-01
874,23199	41,57	6,00E-01
874,43103	41,58	5,99E-01
874,62903	41,59	5,97E-01
874,83301	41,6	5,96E-01
875,01703	41,61	5,95E-01
875,22699	41,62	5,93E-01
875,44098	41,63	5,92E-01
875,62799	41,64	5,91E-01
875,82397	41,65	5,90E-01
876,01501	41,66	5,88E-01
876,23499	41,67	5,86E-01
876,43298	41,68	5,85E-01
876,62	41,69	5,83E-01
876,82397	41,7	5,82E-01
877,013	41,71	5,82E-01
877,21399	41,72	5,80E-01
877,41101	41,73	5,79E-01
877,60797	41,74	5,78E-01
877,823	41,75	5,76E-01
878,01202	41,76	5,75E-01
878,21198	41,77	5,73E-01
878,40002	41,78	5,72E-01
878,60999	41,79	5,71E-01
878,81097	41,8	5,69E-01
879,00201	41,81	5,68E-01
879,20502	41,82	5,67E-01
879,39697	41,83	5,65E-01
879,60999	41,84	5,64E-01
879,80499	41,85	5,63E-01
880,00403	41,86	5,61E-01
880,20898	41,87	5,60E-01
880,39301	41,88	5,59E-01
880,58801	41,89	5,57E-01
880,79602	41,9	5,56E-01
880,995	41,91	5,54E-01
881,20502	41,92	5,53E-01
881,39398	41,93	5,51E-01
881,59698	41,94	5,50E-01
881,78699	41,95	5,48E-01
881,98499	41,96	5,47E-01
882,17999	41,97	5,46E-01
882,38098	41,98	5,45E-01
882,58801	41,99	5,43E-01
882,776	42	5,42E-01
882,97803	42,01	5,41E-01
883,18103	42,02	5,39E-01
883,36902	42,03	5,37E-01
883,57098	42,04	5,36E-01
883,77197	42,05	5,35E-01
883,96301	42,06	5,34E-01
884,16602	42,07	5,32E-01
884,367	42,08	5,30E-01
884,57599	42,09	5,29E-01
884,76202	42,1	5,27E-01
884,96698	42,11	5,26E-01
885,16998	42,12	5,24E-01
885,38098	42,13	5,23E-01
885,56201	42,14	5,22E-01
885,76599	42,15	5,20E-01
885,96399	42,16	5,19E-01
886,15302	42,17	5,17E-01
886,354	42,18	5,16E-01
886,55402	42,19	5,14E-01
886,758	42,2	5,13E-01
886,95001	42,21	5,12E-01
887,14398	42,22	5,10E-01
887,354	42,23	5,09E-01
887,54797	42,24	5,07E-01
887,74701	42,25	5,06E-01
887,94501	42,26	5,04E-01
888,13599	42,27	5,04E-01
888,34302	42,28	5,02E-01
888,54498	42,29	5,00E-01
888,75201	42,3	4,98E-01
888,93402	42,31	4,97E-01
889,133	42,32	4,95E-01
889,34601	42,33	4,94E-01
889,54102	42,34	4,92E-01
889,73901	42,35	4,91E-01
889,91998	42,36	4,89E-01
890,12799	42,37	4,88E-01
890,33301	42,38	4,87E-01
890,54498	42,39	4,85E-01
890,73199	42,4	4,84E-01
890,92999	42,41	4,82E-01
891,12299	42,42	4,81E-01
891,32098	42,43	4,79E-01
891,52301	42,44	4,78E-01
891,72302	42,45	4,76E-01
891,927	42,46	4,74E-01
892,12598	42,47	4,73E-01
892,31299	42,48	4,71E-01
892,52399	42,49	4,70E-01
892,70599	42,5	4,68E-01
892,89697	42,51	4,66E-01
893,10699	42,52	4,66E-01
893,30603	42,53	4,64E-01
893,51801	42,54	4,62E-01
893,71198	42,55	4,61E-01
893,92102	42,56	4,59E-01
894,13098	42,57	4,58E-01
894,29901	42,58	4,56E-01
894,508	42,59	4,55E-01
894,70398	42,6	4,53E-01
894,89502	42,61	4,52E-01
895,09802	42,62	4,50E-01
895,30499	42,63	4,48E-01
895,495	42,64	4,47E-01
895,685	42,65	4,46E-01
895,90503	42,66	4,44E-01
896,09302	42,67	4,43E-01
896,31201	42,68	4,40E-01
896,49402	42,69	4,39E-01
896,69598	42,7	4,37E-01
896,89398	42,71	4,36E-01
897,08502	42,72	4,34E-01
897,28802	42,73	4,33E-01
897,48602	42,74	4,31E-01
897,69098	42,75	4,29E-01
897,89203	42,76	4,28E-01
898,086	42,77	4,26E-01
898,27899	42,78	4,24E-01
898,48901	42,79	4,23E-01
898,68103	42,8	4,21E-01
898,888	42,81	4,20E-01
899,06403	42,82	4,18E-01
899,26898	42,83	4,17E-01
899,46698	42,84	4,15E-01
899,66699	42,85	4,14E-01
899,87097	42,86	4,12E-01
900,06403	42,87	4,11E-01
900,27899	42,88	4,08E-01
900,47803	42,89	4,07E-01
900,66498	42,9	4,05E-01
900,84802	42,91	4,04E-01
901,06598	42,92	4,03E-01
901,26001	42,93	4,01E-01
901,45697	42,94	3,99E-01
901,65503	42,95	3,97E-01
901,84497	42,96	3,95E-01
902,05103	42,97	3,94E-01
902,26501	42,98	3,93E-01
902,45398	42,99	3,91E-01
902,64398	43	3,89E-01
902,84399	43,01	3,88E-01
903,052	43,02	3,86E-01
903,242	43,03	3,84E-01
903,45203	43,04	3,83E-01
903,65198	43,05	3,81E-01
903,83197	43,06	3,79E-01
904,047	43,07	3,78E-01
904,24298	43,08	3,76E-01
904,44397	43,09	3,74E-01
904,64899	43,1	3,73E-01
904,836	43,11	3,71E-01
905,04498	43,12	3,70E-01
905,23199	43,13	3,68E-01
905,435	43,14	3,66E-01
905,63898	43,15	3,65E-01
905,82599	43,16	3,63E-01
906,04199	43,17	3,61E-01
906,22998	43,18	3,60E-01
906,43201	43,19	3,57E-01
906,62402	43,2	3,56E-01
906,83002	43,21	3,55E-01
907,02002	43,22	3,53E-01
907,224	43,23	3,52E-01
907,41901	43,24	3,50E-01
907,62097	43,25	3,48E-01
907,83801	43,26	3,46E-01
908,02698	43,27	3,45E-01
908,22498	43,28	3,43E-01
908,41803	43,29	3,42E-01
908,61902	43,3	3,40E-01
908,81598	43,31	3,38E-01
909,00897	43,32	3,36E-01
909,21997	43,33	3,34E-01
909,41901	43,34	3,33E-01
909,60303	43,35	3,31E-01
909,82098	43,36	3,29E-01
909,99902	43,37	3,28E-01
910,20398	43,38	3,26E-01
910,39801	43,39	3,24E-01
910,60101	43,4	3,23E-01
910,81598	43,41	3,21E-01
910,99799	43,42	3,19E-01
911,20898	43,43	3,17E-01
911,39697	43,44	3,16E-01
911,59698	43,45	3,14E-01
911,797	43,46	3,12E-01
912,00299	43,47	3,11E-01
912,20898	43,48	3,08E-01
912,39301	43,49	3,07E-01
912,60199	43,5	3,05E-01
912,802	43,51	3,04E-01
912,98499	43,52	3,02E-01
913,19397	43,53	3,00E-01
913,38898	43,54	2,98E-01
913,58801	43,55	2,96E-01
913,77399	43,56	2,95E-01
913,97998	43,57	2,93E-01
914,17297	43,58	2,91E-01
914,37299	43,59	2,89E-01
914,578	43,6	2,87E-01
914,78302	43,61	2,86E-01
914,97803	43,62	2,84E-01
915,177	43,63	2,82E-01
915,36798	43,64	2,81E-01
915,56799	43,65	2,79E-01
915,76703	43,66	2,77E-01
915,96802	43,67	2,76E-01
916,15802	43,68	2,74E-01
916,37402	43,69	2,72E-01
916,57098	43,7	2,70E-01
916,75299	43,71	2,69E-01
916,96899	43,72	2,67E-01
917,159	43,73	2,65E-01
917,36298	43,74	2,63E-01
917,54303	43,75	2,62E-01
917,74799	43,76	2,60E-01
917,95502	43,77	2,58E-01
918,151	43,78	2,56E-01
918,35602	43,79	2,54E-01
918,54602	43,8	2,53E-01
918,74597	43,81	2,50E-01
918,95502	43,82	2,48E-01
919,13599	43,83	2,47E-01
919,341	43,84	2,45E-01
919,54199	43,85	2,43E-01
919,745	43,86	2,41E-01
919,94897	43,87	2,40E-01
920,14001	43,88	2,38E-01
920,33398	43,89	2,36E-01
920,547	43,9	2,34E-01
920,73401	43,91	2,32E-01
920,93597	43,92	2,30E-01
921,14203	43,93	2,29E-01
921,32703	43,94	2,27E-01
921,54102	43,95	2,25E-01
921,73602	43,96	2,23E-01
921,935	43,97	2,22E-01
922,13397	43,98	2,20E-01
922,31702	43,99	2,18E-01
922,53198	44	2,16E-01
922,72998	44,01	2,13E-01
922,93201	44,02	2,12E-01
923,13599	44,03	2,10E-01
923,31897	44,04	2,08E-01
923,52899	44,05	2,06E-01
923,72699	44,06	2,04E-01
923,92297	44,07	2,03E-01
924,12299	44,08	2,01E-01
924,32001	44,09	1,99E-01
924,51599	44,1	1,97E-01
924,70001	44,11	1,95E-01
924,90698	44,12	1,94E-01
925,11298	44,13	1,92E-01
925,29901	44,14	1,90E-01
925,51099	44,15	1,88E-01
925,70099	44,16	1,86E-01
925,90302	44,17	1,84E-01
926,10498	44,18	1,82E-01
926,30499	44,19	1,81E-01
926,508	44,2	1,78E-01
926,70001	44,21	1,76E-01
926,89398	44,22	1,74E-01
927,08801	44,23	1,73E-01
927,29498	44,24	1,71E-01
927,495	44,25	1,69E-01
927,68799	44,26	1,67E-01
927,89001	44,27	1,65E-01
928,086	44,28	1,63E-01
928,28699	44,29	1,61E-01
928,48102	44,3	1,59E-01
928,68402	44,31	1,57E-01
928,88	44,32	1,55E-01
929,09003	44,33	1,54E-01
929,28802	44,34	1,52E-01
929,479	44,35	1,50E-01
929,67798	44,36	1,48E-01
929,875	44,37	1,46E-01
930,07001	44,38	1,44E-01
930,27399	44,39	1,42E-01
930,466	44,4	1,40E-01
930,67102	44,41	1,38E-01
930,85101	44,42	1,36E-01
931,05499	44,43	1,34E-01
931,26501	44,44	1,32E-01
931,46002	44,45	1,30E-01
931,66498	44,46	1,29E-01
931,87097	44,47	1,27E-01
932,06403	44,48	1,24E-01
932,258	44,49	1,23E-01
932,45697	44,5	1,20E-01
932,66302	44,51	1,19E-01
932,85901	44,52	1,16E-01
933,05603	44,53	1,15E-01
933,25	44,54	1,12E-01
933,45398	44,55	1,11E-01
933,65698	44,56	1,09E-01
933,85303	44,57	1,07E-01
934,05402	44,58	1,05E-01
934,23901	44,59	1,03E-01
934,45398	44,6	1,01E-01
934,64502	44,61	9,88E-02
934,84302	44,62	9,69E-02
935,05103	44,63	9,49E-02
935,23199	44,64	9,34E-02
935,435	44,65	9,09E-02
935,63202	44,66	8,88E-02
935,841	44,67	8,69E-02
936,03601	44,68	8,47E-02
936,237	44,69	8,29E-02
936,44202	44,7	8,06E-02
936,63098	44,71	7,87E-02
936,828	44,72	7,63E-02
937,02399	44,73	7,46E-02
937,21997	44,74	7,25E-02
937,42102	44,75	7,03E-02
937,61798	44,76	6,85E-02
937,82098	44,77	6,68E-02
938,01398	44,78	6,45E-02
938,21503	44,79	6,26E-02
938,41901	44,8	6,04E-02
938,61603	44,81	5,82E-02
938,81598	44,82	5,62E-02
939,00598	44,83	5,43E-02
939,216	44,84	5,20E-02
939,427	44,85	4,96E-02
939,61902	44,86	4,80E-02
939,81403	44,87	4,57E-02
940,00702	44,88	4,39E-02
940,21198	44,89	4,17E-02
940,39899	44,9	3,94E-02
940,60101	44,91	3,73E-02
940,802	44,92	3,58E-02
940,99402	44,93	3,35E-02
941,20203	44,94	3,12E-02
941,39899	44,95	2,97E-02
941,60797	44,96	2,71E-02
941,79602	44,97	2,50E-02
941,992	44,98	2,30E-02
942,19598	44,99	2,07E-02
942,383	45	1,86E-02
942,59399	45,01	1,64E-02
942,79401	45,02	1,43E-02
942,98297	45,03	1,20E-02
943,19501	45,04	1,04E-02
943,37598	45,05	8,34E-03
943,58197	45,06	6,34E-03
943,78101	45,07	3,61E-03
943,98297	45,08	1,90E-03
944,17798	45,09	-3,70E-04
944,37402	45,1	-2,60E-03
944,57599	45,11	-4,77E-03
944,771	45,12	-6,76E-03
944,96698	45,13	-9,12E-03
945,15503	45,14	-1,15E-02
945,36902	45,15	-1,35E-02
945,56598	45,16	-1,56E-02
945,76001	45,17	-1,78E-02
945,96198	45,18	-2,04E-02
946,16302	45,19	-2,26E-02
946,35498	45,2	-2,43E-02
946,55298	45,21	-2,71E-02
946,75403	45,22	-2,90E-02
946,94598	45,23	-3,14E-02
947,15503	45,24	-3,37E-02
947,34698	45,25	-3,61E-02
947,54797	45,26	-3,81E-02
947,74402	45,27	-4,05E-02
947,93903	45,28	-4,25E-02
948,15002	45,29	-4,48E-02
948,34998	45,3	-4,73E-02
948,55298	45,31	-4,97E-02
948,75	45,32	-5,18E-02
948,92999	45,33	-5,41E-02
949,13098	45,34	-5,64E-02
949,336	45,35	-5,83E-02
949,53998	45,36	-6,11E-02
949,74103	45,37	-6,29E-02
949,92297	45,38	-6,55E-02
950,125	45,39	-6,82E-02
950,32898	45,4	-7,03E-02
950,53302	45,41	-7,28E-02
950,74298	45,42	-7,51E-02
950,93597	45,43	-7,75E-02
951,12201	45,44	-7,96E-02
951,33197	45,45	-8,23E-02
951,52301	45,46	-8,48E-02
951,71698	45,47	-8,71E-02
951,91498	45,48	-8,99E-02
952,112	45,49	-9,25E-02
952,30798	45,5	-9,46E-02
952,51898	45,51	-9,71E-02
952,703	45,52	-9,98E-02
952,91101	45,53	-1,02E-01
953,10101	45,54	-1,04E-01
953,30798	45,55	-1,07E-01
953,52197	45,56	-1,09E-01
953,711	45,57	-1,12E-01
953,91302	45,58	-1,14E-01
954,09698	45,59	-1,17E-01
954,30798	45,6	-1,19E-01
954,49701	45,61	-1,22E-01
954,70398	45,62	-1,24E-01
954,901	45,63	-1,27E-01
955,09198	45,64	-1,29E-01
955,30103	45,65	-1,31E-01
955,495	45,66	-1,34E-01
955,68701	45,67	-1,37E-01
955,89203	45,68	-1,39E-01
956,09497	45,69	-1,42E-01
956,28601	45,7	-1,44E-01
956,47998	45,71	-1,47E-01
956,67999	45,72	-1,49E-01
956,89801	45,73	-1,52E-01
957,08899	45,74	-1,54E-01
957,28497	45,75	-1,57E-01
957,47498	45,76	-1,59E-01
957,685	45,77	-1,62E-01
957,87701	45,78	-1,65E-01
958,07397	45,79	-1,67E-01
958,27899	45,8	-1,70E-01
958,47803	45,81	-1,72E-01
958,68103	45,82	-1,75E-01
958,87903	45,83	-1,77E-01
959,06799	45,84	-1,80E-01
959,27698	45,85	-1,83E-01
959,47101	45,86	-1,85E-01
959,66901	45,87	-1,87E-01
959,86499	45,88	-1,90E-01
960,06201	45,89	-1,93E-01
960,255	45,9	-1,95E-01
960,45801	45,91	-1,98E-01
960,66998	45,92	-2,00E-01
960,86401	45,93	-2,03E-01
961,06702	45,94	-2,05E-01
961,26099	45,95	-2,08E-01
961,45203	45,96	-2,11E-01
961,65302	45,97	-2,13E-01
961,85797	45,98	-2,16E-01
962,04797	45,99	-2,18E-01
962,24701	46	-2,21E-01
962,45697	46,01	-2,24E-01
962,646	46,02	-2,26E-01
962,84497	46,03	-2,29E-01
963,05103	46,04	-2,32E-01
963,24402	46,05	-2,34E-01
963,44397	46,06	-2,37E-01
963,62799	46,07	-2,39E-01
963,836	46,08	-2,42E-01
964,04303	46,09	-2,44E-01
964,23102	46,1	-2,47E-01
964,43298	46,11	-2,50E-01
964,63202	46,12	-2,52E-01
964,84497	46,13	-2,55E-01
965,04102	46,14	-2,58E-01
965,237	46,15	-2,60E-01
965,41901	46,16	-2,63E-01
965,62701	46,17	-2,65E-01
965,836	46,18	-2,68E-01
966,02802	46,19	-2,71E-01
966,237	46,2	-2,74E-01
966,427	46,21	-2,76E-01
966,63	46,22	-2,79E-01
966,81897	46,23	-2,81E-01
967,01501	46,24	-2,84E-01
967,21802	46,25	-2,87E-01
967,409	46,26	-2,89E-01
967,60999	46,27	-2,92E-01
967,82501	46,28	-2,95E-01
968,013	46,29	-2,98E-01
968,22601	46,3	-3,00E-01
968,41699	46,31	-3,02E-01
968,62097	46,32	-3,06E-01
968,82599	46,33	-3,08E-01
969,005	46,34	-3,11E-01
969,216	46,35	-3,13E-01
969,41602	46,36	-3,17E-01
969,60199	46,37	-3,19E-01
969,79498	46,38	-3,22E-01
970,00598	46,39	-3,24E-01
970,216	46,4	-3,27E-01
970,39301	46,41	-3,30E-01
970,59601	46,42	-3,33E-01
970,79797	46,43	-3,35E-01
971,005	46,44	-3,38E-01
971,20801	46,45	-3,41E-01
971,40198	46,46	-3,43E-01
971,60498	46,47	-3,46E-01
971,78699	46,48	-3,49E-01
971,987	46,49	-3,52E-01
972,185	46,5	-3,54E-01
972,38501	46,51	-3,57E-01
972,58197	46,52	-3,60E-01
972,78497	46,53	-3,62E-01
972,99103	46,54	-3,65E-01
973,18201	46,55	-3,68E-01
973,38	46,56	-3,71E-01
973,586	46,57	-3,74E-01
973,78497	46,58	-3,77E-01
973,96997	46,59	-3,79E-01
974,17102	46,6	-3,82E-01
974,37903	46,61	-3,85E-01
974,573	46,62	-3,88E-01
974,76703	46,63	-3,91E-01
974,961	46,64	-3,93E-01
975,16199	46,65	-3,96E-01
975,37402	46,66	-3,99E-01
975,57098	46,67	-4,02E-01
975,77301	46,68	-4,04E-01
975,96399	46,69	-4,08E-01
976,16302	46,7	-4,10E-01
976,37097	46,71	-4,13E-01
976,55298	46,72	-4,16E-01
976,75702	46,73	-4,18E-01
976,95001	46,74	-4,21E-01
977,15698	46,75	-4,24E-01
977,35498	46,76	-4,27E-01
977,54797	46,77	-4,30E-01
977,74799	46,78	-4,33E-01
977,95203	46,79	-4,36E-01
978,15601	46,8	-4,39E-01
978,341	46,81	-4,42E-01
978,54602	46,82	-4,45E-01
978,73901	46,83	-4,47E-01
978,94098	46,84	-4,50E-01
979,15198	46,85	-4,53E-01
979,34003	46,86	-4,56E-01
979,54602	46,87	-4,59E-01
979,73602	46,88	-4,62E-01
979,93201	46,89	-4,65E-01
980,13397	46,9	-4,68E-01
980,32501	46,91	-4,71E-01
980,53198	46,92	-4,74E-01
980,72803	46,93	-4,77E-01
980,93298	46,94	-4,79E-01
981,12402	46,95	-4,83E-01
981,33398	46,96	-4,85E-01
981,54102	46,97	-4,88E-01
981,73401	46,98	-4,91E-01
981,93903	46,99	-4,94E-01
982,13501	47	-4,98E-01
982,32599	47,01	-5,00E-01
982,53601	47,02	-5,03E-01
982,72302	47,03	-5,06E-01
982,91901	47,04	-5,09E-01
983,117	47,05	-5,12E-01
983,31799	47,06	-5,15E-01
983,52399	47,07	-5,18E-01
983,70801	47,08	-5,21E-01
983,92102	47,09	-5,24E-01
984,10999	47,1	-5,27E-01
984,323	47,11	-5,30E-01
984,51001	47,12	-5,33E-01
984,71301	47,13	-5,36E-01
984,90601	47,14	-5,39E-01
985,11499	47,15	-5,42E-01
985,31403	47,16	-5,45E-01
985,508	47,17	-5,48E-01
985,70599	47,18	-5,51E-01
985,90503	47,19	-5,54E-01
986,10699	47,2	-5,57E-01
986,30701	47,21	-5,60E-01
986,50897	47,22	-5,63E-01
986,70599	47,23	-5,66E-01
986,89801	47,24	-5,69E-01
987,10602	47,25	-5,73E-01
987,30298	47,26	-5,76E-01
987,49799	47,27	-5,79E-01
987,69501	47,28	-5,81E-01
987,89398	47,29	-5,85E-01
988,09998	47,3	-5,87E-01
988,284	47,31	-5,91E-01
988,48102	47,32	-5,94E-01
988,69299	47,33	-5,97E-01
988,89001	47,34	-6,00E-01
989,08801	47,35	-6,04E-01
989,276	47,36	-6,06E-01
989,48102	47,37	-6,10E-01
989,68201	47,38	-6,12E-01
989,87598	47,39	-6,16E-01
990,078	47,4	-6,19E-01
990,28003	47,41	-6,22E-01
990,48102	47,42	-6,25E-01
990,67603	47,43	-6,28E-01
990,87097	47,44	-6,31E-01
991,08002	47,45	-6,34E-01
991,276	47,46	-6,38E-01
991,47198	47,47	-6,41E-01
991,66901	47,48	-6,44E-01
991,86102	47,49	-6,47E-01
992,06201	47,5	-6,50E-01
992,26001	47,51	-6,53E-01
992,47302	47,52	-6,56E-01
992,664	47,53	-6,59E-01
992,87201	47,54	-6,62E-01
993,06897	47,55	-6,66E-01
993,26599	47,56	-6,68E-01
993,46802	47,57	-6,72E-01
993,65601	47,58	-6,75E-01
993,85999	47,59	-6,78E-01
994,05402	47,6	-6,81E-01
994,255	47,61	-6,84E-01
994,45398	47,62	-6,87E-01
994,65002	47,63	-6,90E-01
994,86603	47,64	-6,94E-01
995,05499	47,65	-6,97E-01
995,26202	47,66	-7,00E-01
995,45697	47,67	-7,03E-01
995,65698	47,68	-7,06E-01
995,849	47,69	-7,10E-01
996,04602	47,7	-7,13E-01
996,26001	47,71	-7,16E-01
996,44299	47,72	-7,19E-01
996,65002	47,73	-7,22E-01
996,84003	47,74	-7,25E-01
997,03699	47,75	-7,29E-01
997,24402	47,76	-7,32E-01
997,43597	47,77	-7,35E-01
997,64203	47,78	-7,38E-01
997,83197	47,79	-7,41E-01
998,03802	47,8	-7,44E-01
998,23499	47,81	-7,47E-01
998,43298	47,82	-7,50E-01
998,63397	47,83	-7,53E-01
998,83301	47,84	-7,56E-01
999,03802	47,85	-7,59E-01
999,23199	47,86	-7,61E-01
999,427	47,87	-7,65E-01
999,63397	47,88	-7,67E-01
999,82501	47,89	-7,70E-01
1000,02698	47,9	-7,73E-01
1000,22198	47,91	-7,76E-01
1000,42102	47,92	-7,79E-01
1000,61902	47,93	-7,82E-01
1000,823	47,94	-7,85E-01
1001,02301	47,95	-7,88E-01
1001,21002	47,96	-7,91E-01
1001,41998	47,97	-7,94E-01
1001,62097	47,98	-7,97E-01
1001,81403	47,99	-8,00E-01
1002,021	48	-8,03E-01
1002,20801	48,01	-8,06E-01
1002,43298	48,02	-8,09E-01
1002,60901	48,03	-8,12E-01
1002,81299	48,04	-8,15E-01
1003,00403	48,05	-8,18E-01
1003,21399	48,06	-8,21E-01
1003,41602	48,07	-8,24E-01
1003,604	48,08	-8,27E-01
1003,80902	48,09	-8,31E-01
1004,00201	48,1	-8,34E-01
1004,21002	48,11	-8,36E-01
1004,41199	48,12	-8,40E-01
1004,59601	48,13	-8,43E-01
1004,79797	48,14	-8,46E-01
1004,98999	48,15	-8,49E-01
1005,19897	48,16	-8,53E-01
1005,40198	48,17	-8,55E-01
1005,59998	48,18	-8,59E-01
1005,80298	48,19	-8,62E-01
1005,98798	48,2	-8,65E-01
1006,20398	48,21	-8,68E-01
1006,388	48,22	-8,72E-01
1006,59198	48,23	-8,75E-01
1006,77802	48,24	-8,78E-01
1006,98999	48,25	-8,82E-01
1007,19598	48,26	-8,85E-01
1007,388	48,27	-8,89E-01
1007,591	48,28	-8,92E-01
1007,77802	48,29	-8,95E-01
1007,98102	48,3	-8,97E-01
1008,18903	48,31	-9,02E-01
1008,388	48,32	-9,05E-01
1008,58698	48,33	-9,08E-01
1008,776	48,34	-9,11E-01
1008,97998	48,35	-9,14E-01
1009,17102	48,36	-9,18E-01
1009,37299	48,37	-9,22E-01
1009,586	48,38	-9,25E-01
1009,776	48,39	-9,28E-01
1009,98401	48,4	-9,31E-01
1010,16998	48,41	-9,34E-01
1010,37799	48,42	-9,38E-01
1010,57397	48,43	-9,41E-01
1010,76501	48,44	-9,44E-01
1010,97101	48,45	-9,47E-01
1011,16498	48,46	-9,50E-01
1011,36499	48,47	-9,53E-01
1011,56097	48,48	-9,56E-01
1011,76001	48,49	-9,58E-01
1011,95203	48,5	-9,62E-01
1012,15698	48,51	-9,65E-01
1012,35999	48,52	-9,68E-01
1012,56097	48,53	-9,71E-01
1012,763	48,54	-9,74E-01
1012,948	48,55	-9,77E-01
1013,15997	48,56	-9,80E-01
1013,37299	48,57	-9,83E-01
1013,56	48,58	-9,86E-01
1013,758	48,59	-9,89E-01
1013,948	48,6	-9,92E-01
1014,15601	48,61	-9,95E-01
1014,35797	48,62	-9,98E-01
1014,54498	48,63	-1,00E+00
1014,75598	48,64	-1,00E+00
1014,93799	48,65	-1,01E+00
1015,14801	48,66	-1,01E+00
1015,33002	48,67	-1,01E+00
1015,539	48,68	-1,02E+00
1015,73999	48,69	-1,02E+00
1015,93402	48,7	-1,02E+00
1016,14697	48,71	-1,03E+00
1016,33801	48,72	-1,03E+00
1016,54901	48,73	-1,03E+00
1016,75098	48,74	-1,03E+00
1016,935	48,75	-1,04E+00
1017,14099	48,76	-1,04E+00
1017,34003	48,77	-1,05E+00
1017,54498	48,78	-1,05E+00
1017,73499	48,79	-1,05E+00
1017,92499	48,8	-1,05E+00
1018,13098	48,81	-1,06E+00
1018,34302	48,82	-1,06E+00
1018,53101	48,83	-1,06E+00
1018,71899	48,84	-1,07E+00
1018,91998	48,85	-1,07E+00
1019,11798	48,86	-1,07E+00
1019,32898	48,87	-1,08E+00
1019,526	48,88	-1,08E+00
1019,71301	48,89	-1,08E+00
1019,92401	48,9	-1,09E+00
1020,11902	48,91	-1,09E+00
1020,33698	48,92	-1,09E+00
1020,52698	48,93	-1,10E+00
1020,73102	48,94	-1,10E+00
1020,92401	48,95	-1,10E+00
1021,11499	48,96	-1,11E+00
1021,31299	48,97	-1,11E+00
1021,513	48,98	-1,11E+00
1021,71002	48,99	-1,12E+00
1021,91602	49	-1,12E+00
1022,09998	49,01	-1,12E+00
1022,32202	49,02	-1,13E+00
1022,49701	49,03	-1,13E+00
1022,69897	49,04	-1,13E+00
1022,909	49,05	-1,14E+00
1023,09399	49,06	-1,14E+00
1023,30402	49,07	-1,14E+00
1023,50403	49,08	-1,15E+00
1023,70099	49,09	-1,15E+00
1023,91199	49,1	-1,16E+00
1024,10095	49,11	-1,16E+00
1024,29797	49,12	-1,16E+00
1024,49194	49,13	-1,17E+00
1024,69495	49,14	-1,17E+00
1024,88904	49,15	-1,17E+00
1025,09204	49,16	-1,18E+00
1025,28894	49,17	-1,18E+00
1025,49304	49,18	-1,18E+00
1025,69604	49,19	-1,19E+00
1025,88794	49,2	-1,19E+00
1026,09497	49,21	-1,19E+00
1026,28796	49,22	-1,20E+00
1026,48999	49,23	-1,20E+00
1026,68994	49,24	-1,20E+00
1026,88599	49,25	-1,21E+00
1027,09094	49,26	-1,21E+00
1027,27698	49,27	-1,22E+00
1027,48901	49,28	-1,22E+00
1027,68201	49,29	-1,22E+00
1027,88196	49,3	-1,23E+00
1028,07898	49,31	-1,23E+00
1028,271	49,32	-1,23E+00
1028,47205	49,33	-1,24E+00
1028,66296	49,34	-1,24E+00
1028,87305	49,35	-1,24E+00
1029,06604	49,36	-1,25E+00
1029,27295	49,37	-1,25E+00
1029,45496	49,38	-1,26E+00
1029,66602	49,39	-1,26E+00
1029,85901	49,4	-1,26E+00
1030,06299	49,41	-1,27E+00
1030,27502	49,42	-1,27E+00
1030,45801	49,43	-1,27E+00
1030,66602	49,44	-1,28E+00
1030,86304	49,45	-1,28E+00
1031,05103	49,46	-1,28E+00
1031,26904	49,47	-1,29E+00
1031,453	49,48	-1,29E+00
1031,65906	49,49	-1,30E+00
1031,854	49,5	-1,30E+00
1032,05103	49,51	-1,30E+00
1032,25305	49,52	-1,31E+00
1032,44397	49,53	-1,31E+00
1032,66003	49,54	-1,31E+00
1032,84399	49,55	-1,32E+00
1033,03699	49,56	-1,32E+00
1033,25806	49,57	-1,33E+00
1033,45703	49,58	-1,33E+00
1033,64294	49,59	-1,33E+00
1033,83496	49,6	-1,34E+00
1034,04102	49,61	-1,34E+00
1034,24402	49,62	-1,35E+00
1034,44702	49,63	-1,35E+00
1034,64001	49,64	-1,35E+00
1034,83203	49,65	-1,36E+00
1035,03296	49,66	-1,36E+00
1035,25098	49,67	-1,36E+00
1035,43103	49,68	-1,37E+00
1035,625	49,69	-1,37E+00
1035,82495	49,7	-1,38E+00
1036,03699	49,71	-1,38E+00
1036,22205	49,72	-1,38E+00
1036,43201	49,73	-1,39E+00
1036,61902	49,74	-1,39E+00
1036,82996	49,75	-1,40E+00
1037,03003	49,76	-1,40E+00
1037,22302	49,77	-1,40E+00
1037,42603	49,78	-1,41E+00
1037,61694	49,79	-1,41E+00
1037,81995	49,8	-1,41E+00
1038,026	49,81	-1,42E+00
1038,23706	49,82	-1,42E+00
1038,43506	49,83	-1,43E+00
1038,62097	49,84	-1,43E+00
1038,81396	49,85	-1,44E+00
1039,00598	49,86	-1,44E+00
1039,21704	49,87	-1,44E+00
1039,41394	49,88	-1,45E+00
1039,61096	49,89	-1,45E+00
1039,81104	49,9	-1,45E+00
1040,01196	49,91	-1,46E+00
1040,21997	49,92	-1,46E+00
1040,41101	49,93	-1,47E+00
1040,61304	49,94	-1,47E+00
1040,80603	49,95	-1,47E+00
1041,01099	49,96	-1,48E+00
1041,203	49,97	-1,48E+00
1041,41699	49,98	-1,49E+00
1041,60205	49,99	-1,49E+00
1041,79297	50	-1,49E+00
1041,99304	50,01	-1,50E+00
1042,20996	50,02	-1,50E+00
1042,38403	50,03	-1,51E+00
1042,58606	50,04	-1,51E+00
1042,77795	50,05	-1,52E+00
1042,98901	50,06	-1,52E+00
1043,18201	50,07	-1,52E+00
1043,38794	50,08	-1,53E+00
1043,58801	50,09	-1,53E+00
1043,77795	50,1	-1,54E+00
1043,98804	50,11	-1,54E+00
1044,18506	50,12	-1,54E+00
1044,39099	50,13	-1,55E+00
1044,58997	50,14	-1,55E+00
1044,79297	50,15	-1,56E+00
1044,98303	50,16	-1,56E+00
1045,172	50,17	-1,56E+00
1045,37598	50,18	-1,57E+00
1045,57703	50,19	-1,57E+00
1045,78101	50,2	-1,58E+00
1045,96997	50,21	-1,58E+00
1046,17102	50,22	-1,59E+00
1046,36902	50,23	-1,59E+00
1046,58105	50,24	-1,59E+00
1046,77502	50,25	-1,60E+00
1046,96704	50,26	-1,60E+00
1047,17505	50,27	-1,61E+00
1047,36304	50,28	-1,61E+00
1047,56702	50,29	-1,61E+00
1047,77197	50,3	-1,62E+00
1047,95703	50,31	-1,62E+00
1048,16602	50,32	-1,63E+00
1048,36902	50,33	-1,63E+00
1048,55103	50,34	-1,64E+00
1048,77002	50,35	-1,64E+00
1048,95996	50,36	-1,64E+00
1049,16003	50,37	-1,65E+00
1049,36096	50,38	-1,65E+00
1049,56201	50,39	-1,66E+00
1049,75305	50,4	-1,66E+00
1049,94104	50,41	-1,67E+00
1050,14404	50,42	-1,67E+00
1050,34595	50,43	-1,67E+00
1050,55396	50,44	-1,68E+00
1050,75403	50,45	-1,68E+00
1050,94202	50,46	-1,69E+00
1051,14502	50,47	-1,69E+00
1051,33801	50,48	-1,70E+00
1051,547	50,49	-1,70E+00
1051,74304	50,5	-1,70E+00
1051,93506	50,51	-1,71E+00
1052,14294	50,52	-1,71E+00
1052,33203	50,53	-1,72E+00
1052,53699	50,54	-1,72E+00
1052,73206	50,55	-1,73E+00
1052,93506	50,56	-1,73E+00
1053,12695	50,57	-1,73E+00
1053,33203	50,58	-1,74E+00
1053,53699	50,59	-1,74E+00
1053,73096	50,6	-1,75E+00
1053,93005	50,61	-1,75E+00
1054,125	50,62	-1,76E+00
1054,32495	50,63	-1,76E+00
1054,53198	50,64	-1,77E+00
1054,71997	50,65	-1,77E+00
1054,92297	50,66	-1,77E+00
1055,11804	50,67	-1,78E+00
1055,32996	50,68	-1,78E+00
1055,51599	50,69	-1,79E+00
1055,729	50,7	-1,79E+00
1055,92603	50,71	-1,80E+00
1056,12903	50,72	-1,80E+00
1056,31494	50,73	-1,81E+00
1056,50403	50,74	-1,81E+00
1056,71204	50,75	-1,81E+00
1056,927	50,76	-1,82E+00
1057,11902	50,77	-1,82E+00
1057,31799	50,78	-1,83E+00
1057,521	50,79	-1,83E+00
1057,72705	50,8	-1,84E+00
1057,922	50,81	-1,84E+00
1058,11096	50,82	-1,85E+00
1058,30505	50,83	-1,85E+00
1058,49402	50,84	-1,85E+00
1058,70996	50,85	-1,86E+00
1058,896	50,86	-1,86E+00
1059,12195	50,87	-1,87E+00
1059,30701	50,88	-1,87E+00
1059,51001	50,89	-1,88E+00
1059,70703	50,9	-1,88E+00
1059,89502	50,91	-1,89E+00
1060,09497	50,92	-1,89E+00
1060,29199	50,93	-1,89E+00
1060,5	50,94	-1,90E+00
1060,69897	50,95	-1,90E+00
1060,896	50,96	-1,91E+00
1061,09802	50,97	-1,91E+00
1061,29004	50,98	-1,92E+00
1061,49194	50,99	-1,92E+00
1061,68604	51	-1,93E+00
1061,89795	51,01	-1,93E+00
1062,09705	51,02	-1,93E+00
1062,29297	51,03	-1,94E+00
1062,49402	51,04	-1,94E+00
1062,68103	51,05	-1,95E+00
1062,88098	51,06	-1,95E+00
1063,08899	51,07	-1,96E+00
1063,27295	51,08	-1,96E+00
1063,479	51,09	-1,97E+00
1063,67505	51,1	-1,97E+00
1063,87805	51,11	-1,98E+00
1064,08496	51,12	-1,98E+00
1064,27295	51,13	-1,99E+00
1064,46899	51,14	-1,99E+00
1064,66602	51,15	-1,99E+00
1064,87903	51,16	-2,00E+00
1065,06104	51,17	-2,00E+00
1065,28296	51,18	-2,01E+00
1065,474	51,19	-2,01E+00
1065,67603	51,2	-2,02E+00
1065,86902	51,21	-2,02E+00
1066,07397	51,22	-2,03E+00
1066,27002	51,23	-2,03E+00
1066,47095	51,24	-2,04E+00
1066,67395	51,25	-2,04E+00
1066,86096	51,26	-2,05E+00
1067,07104	51,27	-2,05E+00
1067,27295	51,28	-2,06E+00
1067,46704	51,29	-2,06E+00
1067,66895	51,3	-2,06E+00
1067,85596	51,31	-2,07E+00
1068,06494	51,32	-2,07E+00
1068,271	51,33	-2,08E+00
1068,448	51,34	-2,08E+00
1068,651	51,35	-2,09E+00
1068,85303	51,36	-2,09E+00
1069,06494	51,37	-2,10E+00
1069,24597	51,38	-2,10E+00
1069,45398	51,39	-2,11E+00
1069,64697	51,4	-2,11E+00
1069,85706	51,41	-2,12E+00
1070,052	51,42	-2,12E+00
1070,24402	51,43	-2,13E+00
1070,453	51,44	-2,13E+00
1070,62695	51,45	-2,13E+00
1070,83398	51,46	-2,14E+00
1071,04395	51,47	-2,14E+00
1071,23401	51,48	-2,15E+00
1071,45105	51,49	-2,15E+00
1071,64099	51,5	-2,16E+00
1071,85205	51,51	-2,16E+00
1072,03296	51,52	-2,17E+00
1072,23706	51,53	-2,17E+00
1072,44604	51,54	-2,18E+00
1072,63306	51,55	-2,18E+00
1072,82898	51,56	-2,19E+00
1073,02197	51,57	-2,19E+00
1073,229	51,58	-2,20E+00
1073,43896	51,59	-2,20E+00
1073,63	51,6	-2,21E+00
1073,84204	51,61	-2,21E+00
1074,03198	51,62	-2,21E+00
1074,23596	51,63	-2,22E+00
1074,43396	51,64	-2,22E+00
1074,62	51,65	-2,23E+00
1074,81604	51,66	-2,23E+00
1075,021	51,67	-2,24E+00
1075,23706	51,68	-2,24E+00
1075,41797	51,69	-2,25E+00
1075,62598	51,7	-2,25E+00
1075,81396	51,71	-2,26E+00
1076,01904	51,72	-2,26E+00
1076,22498	51,73	-2,27E+00
1076,41101	51,74	-2,27E+00
1076,62195	51,75	-2,28E+00
1076,80701	51,76	-2,28E+00
1077,01794	51,77	-2,29E+00
1077,22205	51,78	-2,29E+00
1077,41895	51,79	-2,30E+00
1077,61597	51,8	-2,30E+00
1077,81104	51,81	-2,31E+00
1078,02795	51,82	-2,31E+00
1078,20996	51,83	-2,32E+00
1078,40405	51,84	-2,32E+00
1078,60596	51,85	-2,32E+00
1078,79504	51,86	-2,33E+00
1079,005	51,87	-2,33E+00
1079,18701	51,88	-2,34E+00
1079,401	51,89	-2,34E+00
1079,61304	51,9	-2,35E+00
1079,80298	51,91	-2,35E+00
1079,99902	51,92	-2,36E+00
1080,19397	51,93	-2,36E+00
1080,40906	51,94	-2,37E+00
1080,59998	51,95	-2,37E+00
1080,79004	51,96	-2,38E+00
1080,995	51,97	-2,38E+00
1081,19202	51,98	-2,39E+00
1081,39795	51,99	-2,39E+00
1081,58801	52	-2,40E+00
1081,79199	52,01	-2,40E+00
1081,98096	52,02	-2,41E+00
1082,17603	52,03	-2,41E+00
1082,39197	52,04	-2,42E+00
1082,59998	52,05	-2,42E+00
1082,79297	52,06	-2,43E+00
1082,98096	52,07	-2,43E+00
1083,19299	52,08	-2,44E+00
1083,38098	52,09	-2,44E+00
1083,58398	52,1	-2,45E+00
1083,78198	52,11	-2,45E+00
1083,97498	52,12	-2,46E+00
1084,18604	52,13	-2,46E+00
1084,375	52,14	-2,47E+00
1084,58105	52,15	-2,47E+00
1084,78101	52,16	-2,48E+00
1084,97498	52,17	-2,48E+00
1085,18103	52,18	-2,49E+00
1085,37402	52,19	-2,49E+00
1085,57703	52,2	-2,50E+00
1085,78503	52,21	-2,50E+00
1085,97302	52,22	-2,51E+00
1086,16394	52,23	-2,51E+00
1086,35999	52,24	-2,52E+00
1086,56702	52,25	-2,52E+00
1086,76196	52,26	-2,53E+00
1086,96301	52,27	-2,53E+00
1087,15601	52,28	-2,54E+00
1087,35596	52,29	-2,54E+00
1087,57104	52,3	-2,55E+00
1087,76697	52,31	-2,55E+00
1087,96899	52,32	-2,56E+00
1088,16003	52,33	-2,56E+00
1088,36206	52,34	-2,56E+00
1088,54602	52,35	-2,57E+00
1088,745	52,36	-2,58E+00
1088,96106	52,37	-2,58E+00
1089,14502	52,38	-2,58E+00
1089,35303	52,39	-2,59E+00
1089,53894	52,4	-2,60E+00
1089,74902	52,41	-2,60E+00
1089,94897	52,42	-2,61E+00
1090,14404	52,43	-2,61E+00
1090,35205	52,44	-2,62E+00
1090,53894	52,45	-2,62E+00
1090,75305	52,46	-2,63E+00
1090,948	52,47	-2,63E+00
1091,14197	52,48	-2,64E+00
1091,34802	52,49	-2,64E+00
1091,54102	52,5	-2,64E+00
1091,75305	52,51	-2,65E+00
1091,93701	52,52	-2,66E+00
1092,13196	52,53	-2,66E+00
1092,33801	52,54	-2,66E+00
1092,53198	52,55	-2,67E+00
1092,73804	52,56	-2,68E+00
1092,93701	52,57	-2,68E+00
1093,13	52,58	-2,69E+00
1093,33899	52,59	-2,69E+00
1093,53198	52,6	-2,70E+00
1093,73706	52,61	-2,70E+00
1093,92102	52,62	-2,71E+00
1094,12805	52,63	-2,71E+00
1094,31799	52,64	-2,72E+00
1094,52197	52,65	-2,72E+00
1094,71399	52,66	-2,73E+00
1094,92004	52,67	-2,73E+00
1095,12097	52,68	-2,74E+00
1095,32898	52,69	-2,74E+00
1095,52002	52,7	-2,75E+00
1095,71204	52,71	-2,75E+00
1095,91296	52,72	-2,76E+00
1096,11694	52,73	-2,76E+00
1096,31299	52,74	-2,77E+00
1096,51001	52,75	-2,77E+00
1096,70105	52,76	-2,78E+00
1096,90405	52,77	-2,78E+00
1097,099	52,78	-2,79E+00
1097,30603	52,79	-2,80E+00
1097,50195	52,8	-2,80E+00
1097,69702	52,81	-2,81E+00
1097,90601	52,82	-2,81E+00
1098,09802	52,83	-2,82E+00
1098,302	52,84	-2,82E+00
1098,50305	52,85	-2,83E+00
1098,69604	52,86	-2,83E+00
1098,90295	52,87	-2,84E+00
1099,08899	52,88	-2,84E+00
1099,28699	52,89	-2,85E+00
1099,49304	52,9	-2,85E+00
1099,69397	52,91	-2,86E+00
1099,89001	52,92	-2,86E+00
1100,09399	52,93	-2,87E+00
1100,29602	52,94	-2,87E+00
1100,5	52,95	-2,88E+00
1100,69299	52,96	-2,88E+00
1100,88501	52,97	-2,89E+00
1101,08801	52,98	-2,89E+00
1101,297	52,99	-2,90E+00
1101,49695	53	-2,91E+00
1101,69104	53,01	-2,91E+00
1101,88599	53,02	-2,92E+00
1102,08398	53,03	-2,92E+00
1102,28198	53,04	-2,93E+00
1102,48596	53,05	-2,93E+00
1102,68005	53,06	-2,94E+00
1102,87097	53,07	-2,94E+00
1103,08704	53,08	-2,95E+00
1103,27295	53,09	-2,95E+00
1103,47498	53,1	-2,96E+00
1103,68604	53,11	-2,96E+00
1103,87305	53,12	-2,97E+00
1104,09204	53,13	-2,98E+00
1104,27295	53,14	-2,98E+00
1104,48401	53,15	-2,99E+00
1104,66296	53,16	-2,99E+00
1104,86902	53,17	-3,00E+00
1105,073	53,18	-3,00E+00
1105,26599	53,19	-3,01E+00
1105,46497	53,2	-3,01E+00
1105,65906	53,21	-3,02E+00
1105,87305	53,22	-3,02E+00
1106,06799	53,23	-3,03E+00
1106,26599	53,24	-3,03E+00
1106,46204	53,25	-3,04E+00
1106,65503	53,26	-3,05E+00
1106,86694	53,27	-3,05E+00
1107,06104	53,28	-3,06E+00
1107,26294	53,29	-3,06E+00
1107,45203	53,3	-3,07E+00
1107,65503	53,31	-3,07E+00
1107,86499	53,32	-3,08E+00
1108,05896	53,33	-3,08E+00
1108,25806	53,34	-3,09E+00
1108,44202	53,35	-3,10E+00
1108,64905	53,36	-3,10E+00
1108,86206	53,37	-3,11E+00
1109,04102	53,38	-3,11E+00
1109,25903	53,39	-3,12E+00
1109,45203	53,4	-3,12E+00
1109,64795	53,41	-3,13E+00
1109,83997	53,42	-3,13E+00
1110,04602	53,43	-3,14E+00
1110,24304	53,44	-3,14E+00
1110,43604	53,45	-3,15E+00
1110,64099	53,46	-3,16E+00
1110,84204	53,47	-3,16E+00
1111,03894	53,48	-3,17E+00
1111,23401	53,49	-3,17E+00
1111,43701	53,5	-3,18E+00
1111,64001	53,51	-3,18E+00
1111,84497	53,52	-3,19E+00
1112,04602	53,53	-3,19E+00
1112,22998	53,54	-3,20E+00
1112,43701	53,55	-3,20E+00
1112,62903	53,56	-3,21E+00
1112,83301	53,57	-3,22E+00
1113,03101	53,58	-3,22E+00
1113,21802	53,59	-3,23E+00
1113,42798	53,6	-3,23E+00
1113,62598	53,61	-3,24E+00
1113,82397	53,62	-3,24E+00
1114,02905	53,63	-3,25E+00
1114,23499	53,64	-3,25E+00
1114,43298	53,65	-3,26E+00
1114,62	53,66	-3,27E+00
1114,82898	53,67	-3,27E+00
1115,01294	53,68	-3,28E+00
1115,21704	53,69	-3,28E+00
1115,41101	53,7	-3,29E+00
1115,61804	53,71	-3,29E+00
1115,82104	53,72	-3,30E+00
1116,00903	53,73	-3,30E+00
1116,21899	53,74	-3,31E+00
1116,41003	53,75	-3,31E+00
1116,61401	53,76	-3,32E+00
1116,81897	53,77	-3,33E+00
1117,00598	53,78	-3,33E+00
1117,21802	53,79	-3,34E+00
1117,40906	53,8	-3,34E+00
1117,61304	53,81	-3,35E+00
1117,802	53,82	-3,35E+00
1118,01404	53,83	-3,36E+00
1118,21399	53,84	-3,36E+00
1118,41101	53,85	-3,37E+00
1118,61499	53,86	-3,38E+00
1118,80603	53,87	-3,38E+00
1119,01404	53,88	-3,39E+00
1119,21594	53,89	-3,39E+00
1119,41101	53,9	-3,40E+00
1119,60596	53,91	-3,41E+00
1119,79895	53,92	-3,41E+00
1120,00403	53,93	-3,42E+00
1120,20996	53,94	-3,42E+00
1120,41199	53,95	-3,43E+00
1120,60901	53,96	-3,43E+00
1120,79602	53,97	-3,44E+00
1121,00305	53,98	-3,45E+00
1121,20398	53,99	-3,45E+00
1121,39502	54	-3,46E+00
1121,59802	54,01	-3,46E+00
1121,79297	54,02	-3,47E+00
1122,00403	54,03	-3,47E+00
1122,19202	54,04	-3,48E+00
1122,39197	54,05	-3,49E+00
1122,58801	54,06	-3,49E+00
1122,797	54,07	-3,50E+00
1122,98206	54,08	-3,50E+00
1123,19397	54,09	-3,51E+00
1123,39099	54,1	-3,51E+00
1123,58606	54,11	-3,52E+00
1123,79004	54,12	-3,53E+00
1123,97998	54,13	-3,53E+00
1124,18298	54,14	-3,54E+00
1124,39697	54,15	-3,54E+00
1124,57996	54,16	-3,55E+00
1124,79395	54,17	-3,55E+00
1124,98303	54,18	-3,56E+00
1125,18396	54,19	-3,57E+00
1125,39001	54,2	-3,57E+00
1125,58899	54,21	-3,58E+00
1125,77905	54,22	-3,58E+00
1125,979	54,23	-3,59E+00
1126,18103	54,24	-3,60E+00
1126,38	54,25	-3,60E+00
1126,58606	54,26	-3,61E+00
1126,77502	54,27	-3,61E+00
1126,98499	54,28	-3,62E+00
1127,17505	54,29	-3,63E+00
1127,37805	54,3	-3,63E+00
1127,57703	54,31	-3,64E+00
1127,76599	54,32	-3,64E+00
1127,96704	54,33	-3,65E+00
1128,16394	54,34	-3,66E+00
1128,36902	54,35	-3,66E+00
1128,573	54,36	-3,67E+00
1128,76697	54,37	-3,67E+00
1128,96899	54,38	-3,68E+00
1129,16797	54,39	-3,69E+00
1129,37195	54,4	-3,69E+00
1129,56702	54,41	-3,70E+00
1129,76001	54,42	-3,70E+00
1129,96704	54,43	-3,71E+00
1130,16003	54,44	-3,71E+00
1130,36499	54,45	-3,72E+00
1130,57397	54,46	-3,73E+00
1130,74805	54,47	-3,73E+00
1130,93896	54,48	-3,74E+00
1131,15796	54,49	-3,74E+00
1131,354	54,5	-3,75E+00
1131,547	54,51	-3,76E+00
1131,74304	54,52	-3,76E+00
1131,94397	54,53	-3,77E+00
1132,151	54,54	-3,77E+00
1132,36096	54,55	-3,78E+00
1132,55505	54,56	-3,79E+00
1132,75403	54,57	-3,79E+00
1132,94397	54,58	-3,80E+00
1133,15295	54,59	-3,80E+00
1133,33496	54,6	-3,81E+00
1133,54102	54,61	-3,82E+00
1133,73401	54,62	-3,82E+00
1133,93701	54,63	-3,83E+00
1134,13794	54,64	-3,83E+00
1134,33203	54,65	-3,84E+00
1134,54102	54,66	-3,85E+00
1134,74194	54,67	-3,85E+00
1134,92896	54,68	-3,86E+00
1135,13696	54,69	-3,86E+00
1135,32605	54,7	-3,87E+00
1135,53601	54,71	-3,88E+00
1135,74097	54,72	-3,88E+00
1135,94604	54,73	-3,89E+00
1136,13098	54,74	-3,89E+00
1136,328	54,75	-3,90E+00
1136,52795	54,76	-3,91E+00
1136,72498	54,77	-3,91E+00
1136,93994	54,78	-3,92E+00
1137,13	54,79	-3,93E+00
1137,33105	54,8	-3,93E+00
1137,53198	54,81	-3,94E+00
1137,72302	54,82	-3,94E+00
1137,92603	54,83	-3,95E+00
1138,11304	54,84	-3,95E+00
1138,323	54,85	-3,96E+00
1138,51294	54,86	-3,97E+00
1138,71704	54,87	-3,97E+00
1138,92004	54,88	-3,98E+00
1139,11597	54,89	-3,99E+00
1139,31494	54,9	-3,99E+00
1139,52295	54,91	-4,00E+00
1139,72302	54,92	-4,00E+00
1139,92798	54,93	-4,01E+00
1140,11401	54,94	-4,02E+00
1140,31799	54,95	-4,02E+00
1140,51501	54,96	-4,03E+00
1140,72803	54,97	-4,03E+00
1140,92395	54,98	-4,04E+00
1141,10706	54,99	-4,05E+00
1141,30798	55	-4,05E+00
1141,50195	55,01	-4,06E+00
1141,70398	55,02	-4,07E+00
1141,90698	55,03	-4,07E+00
1142,11804	55,04	-4,08E+00
1142,30701	55,05	-4,09E+00
1142,51099	55,06	-4,09E+00
1142,71497	55,07	-4,10E+00
1142,90698	55,08	-4,10E+00
1143,11401	55,09	-4,11E+00
1143,30298	55,1	-4,11E+00
1143,49402	55,11	-4,12E+00
1143,69702	55,12	-4,13E+00
1143,90002	55,13	-4,14E+00
1144,11401	55,14	-4,14E+00
1144,297	55,15	-4,15E+00
1144,51794	55,16	-4,15E+00
1144,69397	55,17	-4,16E+00
1144,89795	55,18	-4,17E+00
1145,11206	55,19	-4,17E+00
1145,29297	55,2	-4,18E+00
1145,49805	55,21	-4,19E+00
1145,69202	55,22	-4,19E+00
1145,896	55,23	-4,20E+00
1146,10999	55,24	-4,20E+00
1146,30005	55,25	-4,21E+00
1146,48596	55,26	-4,22E+00
1146,68896	55,27	-4,22E+00
1146,88599	55,28	-4,23E+00
1147,08398	55,29	-4,24E+00
1147,29602	55,3	-4,24E+00
1147,48499	55,31	-4,25E+00
1147,68396	55,32	-4,25E+00
1147,89404	55,33	-4,26E+00
1148,08801	55,34	-4,27E+00
1148,29004	55,35	-4,27E+00
1148,48499	55,36	-4,28E+00
1148,68896	55,37	-4,29E+00
1148,88599	55,38	-4,29E+00
1149,08997	55,39	-4,30E+00
1149,29797	55,4	-4,31E+00
1149,479	55,41	-4,31E+00
1149,68103	55,42	-4,32E+00
1149,87402	55,43	-4,32E+00
1150,08704	55,44	-4,33E+00
1150,29504	55,45	-4,34E+00
1150,49194	55,46	-4,34E+00
1150,69202	55,47	-4,35E+00
1150,87402	55,48	-4,35E+00
1151,08801	55,49	-4,36E+00
1151,29102	55,5	-4,37E+00
1151,48303	55,51	-4,37E+00
1151,66797	55,52	-4,38E+00
1151,87598	55,53	-4,39E+00
1152,078	55,54	-4,39E+00
1152,26904	55,55	-4,40E+00
1152,47998	55,56	-4,41E+00
1152,65906	55,57	-4,41E+00
1152,87305	55,58	-4,42E+00
1153,06995	55,59	-4,42E+00
1153,26904	55,6	-4,43E+00
1153,46802	55,61	-4,44E+00
1153,66602	55,62	-4,44E+00
1153,87598	55,63	-4,45E+00
1154,06006	55,64	-4,46E+00
1154,27002	55,65	-4,46E+00
1154,474	55,66	-4,47E+00
1154,66602	55,67	-4,48E+00
1154,86401	55,68	-4,48E+00
1155,05798	55,69	-4,49E+00
1155,26099	55,7	-4,49E+00
1155,46899	55,71	-4,50E+00
1155,66602	55,72	-4,51E+00
1155,86902	55,73	-4,51E+00
1156,06604	55,74	-4,52E+00
1156,26697	55,75	-4,53E+00
1156,45703	55,76	-4,53E+00
1156,66699	55,77	-4,54E+00
1156,85803	55,78	-4,55E+00
1157,04797	55,79	-4,55E+00
1157,255	55,8	-4,56E+00
1157,448	55,81	-4,57E+00
1157,65002	55,82	-4,57E+00
1157,84705	55,83	-4,58E+00
1158,05005	55,84	-4,58E+00
1158,26501	55,85	-4,59E+00
1158,44897	55,86	-4,60E+00
1158,65198	55,87	-4,60E+00
1158,84705	55,88	-4,61E+00
1159,04504	55,89	-4,62E+00
1159,24597	55,9	-4,62E+00
1159,44495	55,91	-4,63E+00
1159,64099	55,92	-4,64E+00
1159,83704	55,93	-4,64E+00
1160,03699	55,94	-4,65E+00
1160,23303	55,95	-4,66E+00
1160,45398	55,96	-4,66E+00
1160,64404	55,97	-4,67E+00
1160,82898	55,98	-4,68E+00
1161,03601	55,99	-4,68E+00
1161,23596	56	-4,69E+00
1161,43799	56,01	-4,70E+00
1161,62805	56,02	-4,70E+00
1161,83496	56,03	-4,71E+00
1162,02295	56,04	-4,72E+00
1162,23303	56,05	-4,72E+00
1162,42603	56,06	-4,73E+00
1162,62598	56,07	-4,74E+00
1162,83801	56,08	-4,74E+00
1163,021	56,09	-4,75E+00
1163,22205	56,1	-4,75E+00
1163,43994	56,11	-4,76E+00
1163,625	56,12	-4,77E+00
1163,83398	56,13	-4,78E+00
1164,02405	56,14	-4,78E+00
1164,23499	56,15	-4,79E+00
1164,41895	56,16	-4,79E+00
1164,62195	56,17	-4,80E+00
1164,823	56,18	-4,81E+00
1165,02002	56,19	-4,82E+00
1165,229	56,2	-4,82E+00
1165,41895	56,21	-4,83E+00
1165,61804	56,22	-4,84E+00
1165,82104	56,23	-4,84E+00
1166,01196	56,24	-4,85E+00
1166,20703	56,25	-4,86E+00
1166,41504	56,26	-4,86E+00
1166,60901	56,27	-4,87E+00
1166,80396	56,28	-4,87E+00
1167,01196	56,29	-4,88E+00
1167,20105	56,3	-4,89E+00
1167,41797	56,31	-4,90E+00
1167,61499	56,32	-4,90E+00
1167,80505	56,33	-4,91E+00
1168,01404	56,34	-4,92E+00
1168,203	56,35	-4,92E+00
1168,41797	56,36	-4,93E+00
1168,59094	56,37	-4,93E+00
1168,81604	56,38	-4,94E+00
1169,00806	56,39	-4,95E+00
1169,20203	56,4	-4,96E+00
1169,40295	56,41	-4,96E+00
1169,59802	56,42	-4,97E+00
1169,81396	56,43	-4,97E+00
1170,01794	56,44	-4,98E+00
1170,20703	56,45	-4,98E+00
1170,40295	56,46	-4,99E+00
1170,59204	56,47	-5,00E+00
1170,80505	56,48	-5,01E+00
1171,00598	56,49	-5,01E+00
1171,19495	56,5	-5,02E+00
1171,41602	56,51	-5,03E+00
1171,60095	56,52	-5,03E+00
1171,80005	56,53	-5,04E+00
1171,99597	56,54	-5,05E+00
1172,19202	56,55	-5,06E+00
1172,39697	56,56	-5,06E+00
1172,60803	56,57	-5,07E+00
1172,79602	56,58	-5,08E+00
1173,00305	56,59	-5,08E+00
1173,18994	56,6	-5,09E+00
1173,38196	56,61	-5,10E+00
1173,58398	56,62	-5,10E+00
1173,771	56,63	-5,11E+00
1173,98303	56,64	-5,12E+00
1174,19104	56,65	-5,12E+00
1174,38403	56,66	-5,13E+00
1174,59399	56,67	-5,13E+00
1174,79004	56,68	-5,14E+00
1174,995	56,69	-5,15E+00
1175,19995	56,7	-5,16E+00
1175,38306	56,71	-5,16E+00
1175,59302	56,72	-5,17E+00
1175,77295	56,73	-5,18E+00
1175,98303	56,74	-5,18E+00
1176,17297	56,75	-5,19E+00
1176,38	56,76	-5,20E+00
1176,56702	56,77	-5,20E+00
1176,77905	56,78	-5,21E+00
1176,97705	56,79	-5,21E+00
1177,17004	56,8	-5,22E+00
1177,38599	56,81	-5,23E+00
1177,578	56,82	-5,24E+00
1177,77295	56,83	-5,24E+00
1177,98096	56,84	-5,25E+00
1178,17603	56,85	-5,26E+00
1178,38	56,86	-5,26E+00
1178,57703	56,87	-5,27E+00
1178,76904	56,88	-5,28E+00
1178,95801	56,89	-5,28E+00
1179,172	56,9	-5,29E+00
1179,37598	56,91	-5,30E+00
1179,56006	56,92	-5,30E+00
1179,76599	56,93	-5,31E+00
1179,95996	56,94	-5,32E+00
1180,16602	56,95	-5,32E+00
1180,36804	56,96	-5,33E+00
1180,56396	56,97	-5,34E+00
1180,76599	56,98	-5,34E+00
1180,95496	56,99	-5,35E+00
1181,16504	57	-5,36E+00
1181,36304	57,01	-5,36E+00
1181,56604	57,02	-5,37E+00
1181,74695	57,03	-5,38E+00
1181,95203	57,04	-5,38E+00
1182,15601	57,05	-5,39E+00
1182,34595	57,06	-5,40E+00
1182,55396	57,07	-5,40E+00
1182,75	57,08	-5,41E+00
1182,95105	57,09	-5,41E+00
1183,15503	57,1	-5,42E+00
1183,35706	57,11	-5,43E+00
1183,55298	57,12	-5,44E+00
1183,755	57,13	-5,44E+00
1183,948	57,14	-5,45E+00
1184,14099	57,15	-5,46E+00
1184,35303	57,16	-5,46E+00
1184,55103	57,17	-5,47E+00
1184,73901	57,18	-5,48E+00
1184,94995	57,19	-5,48E+00
1185,14001	57,2	-5,49E+00
1185,34399	57,21	-5,50E+00
1185,552	57,22	-5,50E+00
1185,74097	57,23	-5,51E+00
1185,948	57,24	-5,52E+00
1186,13904	57,25	-5,52E+00
1186,35498	57,26	-5,53E+00
1186,53601	57,27	-5,54E+00
1186,745	57,28	-5,54E+00
1186,93896	57,29	-5,55E+00
1187,14404	57,3	-5,56E+00
1187,35095	57,31	-5,56E+00
1187,54102	57,32	-5,57E+00
1187,73999	57,33	-5,58E+00
1187,93396	57,34	-5,59E+00
1188,12903	57,35	-5,59E+00
1188,33704	57,36	-5,60E+00
1188,52197	57,37	-5,61E+00
1188,73901	57,38	-5,61E+00
1188,94104	57,39	-5,62E+00
1189,14001	57,4	-5,62E+00
1189,32397	57,41	-5,63E+00
1189,53601	57,42	-5,64E+00
1189,745	57,43	-5,64E+00
1189,93701	57,44	-5,65E+00
1190,13599	57,45	-5,66E+00
1190,33301	57,46	-5,67E+00
1190,53101	57,47	-5,67E+00
1190,73303	57,48	-5,68E+00
1190,93201	57,49	-5,69E+00
1191,11499	57,5	-5,69E+00
1191,32104	57,51	-5,70E+00
1191,53699	57,52	-5,71E+00
1191,72205	57,53	-5,71E+00
1191,93506	57,54	-5,72E+00
1192,125	57,55	-5,73E+00
1192,31995	57,56	-5,73E+00
1192,52405	57,57	-5,74E+00
1192,724	57,58	-5,75E+00
1192,92896	57,59	-5,75E+00
1193,12195	57,6	-5,76E+00
1193,31604	57,61	-5,77E+00
1193,50903	57,62	-5,77E+00
1193,71899	57,63	-5,78E+00
1193,91602	57,64	-5,79E+00
1194,10706	57,65	-5,79E+00
1194,31995	57,66	-5,80E+00
1194,51294	57,67	-5,81E+00
1194,71301	57,68	-5,81E+00
1194,922	57,69	-5,82E+00
1195,11499	57,7	-5,83E+00
1195,31702	57,71	-5,83E+00
1195,495	57,72	-5,84E+00
1195,70496	57,73	-5,85E+00
1195,89697	57,74	-5,85E+00
1196,10205	57,75	-5,86E+00
1196,31897	57,76	-5,87E+00
1196,5	57,77	-5,88E+00
1196,70605	57,78	-5,88E+00
1196,89795	57,79	-5,89E+00
1197,11597	57,8	-5,90E+00
1197,31201	57,81	-5,90E+00
1197,50403	57,82	-5,91E+00
1197,70703	57,83	-5,91E+00
1197,89905	57,84	-5,92E+00
1198,08997	57,85	-5,93E+00
1198,28894	57,86	-5,94E+00
1198,50098	57,87	-5,94E+00
1198,69995	57,88	-5,95E+00
1198,90002	57,89	-5,95E+00
1199,12305	57,9	-5,96E+00
1199,29297	57,91	-5,97E+00
1199,50305	57,92	-5,97E+00
1199,69995	57,93	-5,98E+00
1199,90405	57,94	-5,99E+00
1200,09705	57,95	-5,99E+00
1200,28894	57,96	-6,00E+00
1200,50403	57,97	-6,01E+00
1200,70398	57,98	-6,01E+00
1200,89502	57,99	-6,02E+00
1201,08704	58	-6,03E+00
1201,29895	58,01	-6,04E+00
1201,48804	58,02	-6,04E+00
1201,68396	58,03	-6,05E+00
1201,89001	58,04	-6,05E+00
1202,07495	58,05	-6,06E+00
1202,29602	58,06	-6,07E+00
1202,49597	58,07	-6,07E+00
1202,69495	58,08	-6,08E+00
1202,89001	58,09	-6,09E+00
1203,08203	58,1	-6,09E+00
1203,29395	58,11	-6,10E+00
1203,47595	58,12	-6,11E+00
1203,68201	58,13	-6,11E+00
1203,87598	58,14	-6,12E+00
1204,07495	58,15	-6,12E+00
1204,28503	58,16	-6,13E+00
1204,47595	58,17	-6,14E+00
1204,677	58,18	-6,14E+00
1204,87695	58,19	-6,15E+00
1205,08496	58,2	-6,16E+00
1205,27905	58,21	-6,16E+00
1205,46704	58,22	-6,17E+00
1205,67896	58,23	-6,18E+00
1205,875	58,24	-6,19E+00
1206,08496	58,25	-6,19E+00
1206,27405	58,26	-6,20E+00
1206,47998	58,27	-6,21E+00
1206,67798	58,28	-6,21E+00
1206,87195	58,29	-6,21E+00
1207,078	58,3	-6,22E+00
1207,26294	58,31	-6,23E+00
1207,474	58,32	-6,23E+00
1207,68298	58,33	-6,24E+00
1207,86206	58,34	-6,25E+00
1208,05298	58,35	-6,26E+00
1208,25806	58,36	-6,26E+00
1208,45398	58,37	-6,27E+00
1208,64905	58,38	-6,28E+00
1208,85901	58,39	-6,28E+00
1209,05505	58,4	-6,29E+00
1209,26404	58,41	-6,29E+00
1209,46301	58,42	-6,30E+00
1209,66797	58,43	-6,31E+00
1209,86401	58,44	-6,31E+00
1210,05396	58,45	-6,32E+00
1210,25903	58,46	-6,33E+00
1210,44995	58,47	-6,33E+00
1210,64294	58,48	-6,34E+00
1210,85596	58,49	-6,34E+00
1211,05798	58,5	-6,35E+00
1211,26294	58,51	-6,36E+00
1211,44897	58,52	-6,36E+00
1211,65698	58,53	-6,37E+00
1211,86499	58,54	-6,38E+00
1212,06299	58,55	-6,38E+00
1212,26599	58,56	-6,39E+00
1212,44995	58,57	-6,39E+00
1212,646	58,58	-6,40E+00
1212,84705	58,59	-6,41E+00
1213,05396	58,6	-6,41E+00
1213,24902	58,61	-6,42E+00
1213,45105	58,62	-6,42E+00
1213,65503	58,63	-6,43E+00
1213,84497	58,64	-6,44E+00
1214,05005	58,65	-6,44E+00
1214,24402	58,66	-6,45E+00
1214,44995	58,67	-6,46E+00
1214,66296	58,68	-6,46E+00
1214,85205	58,69	-6,47E+00
1215,05005	58,7	-6,48E+00
1215,23901	58,71	-6,48E+00
1215,44397	58,72	-6,48E+00
1215,64197	58,73	-6,49E+00
1215,84399	58,74	-6,50E+00
1216,05701	58,75	-6,50E+00
1216,24805	58,76	-6,51E+00
1216,44397	58,77	-6,52E+00
1216,64697	58,78	-6,52E+00
1216,84302	58,79	-6,53E+00
1217,05103	58,8	-6,53E+00
1217,23999	58,81	-6,54E+00
1217,43396	58,82	-6,54E+00
1217,62805	58,83	-6,55E+00
1217,84497	58,84	-6,56E+00
1218,03003	58,85	-6,56E+00
1218,24805	58,86	-6,57E+00
1218,422	58,87	-6,57E+00
1218,63501	58,88	-6,58E+00
1218,84302	58,89	-6,59E+00
1219,03003	58,9	-6,59E+00
1219,23706	58,91	-6,60E+00
1219,427	58,92	-6,61E+00
1219,63501	58,93	-6,61E+00
1219,82996	58,94	-6,62E+00
1220,03296	58,95	-6,62E+00
1220,23804	58,96	-6,63E+00
1220,43201	58,97	-6,63E+00
1220,64001	58,98	-6,64E+00
1220,823	58,99	-6,64E+00
1221,03003	59	-6,65E+00
1221,24194	59,01	-6,66E+00
1221,42395	59,02	-6,66E+00
1221,63904	59,03	-6,67E+00
1221,82495	59,04	-6,67E+00
1222,03796	59,05	-6,68E+00
1222,21899	59,06	-6,68E+00
1222,42798	59,07	-6,69E+00
1222,625	59,08	-6,69E+00
1222,81799	59,09	-6,70E+00
1223,02197	59,1	-6,71E+00
1223,21204	59,11	-6,71E+00
1223,43103	59,12	-6,72E+00
1223,62	59,13	-6,72E+00
1223,82202	59,14	-6,73E+00
1224,02698	59,15	-6,73E+00
1224,21594	59,16	-6,74E+00
1224,42603	59,17	-6,74E+00
1224,60095	59,18	-6,75E+00
1224,81201	59,19	-6,76E+00
1225,01196	59,2	-6,76E+00
1225,21899	59,21	-6,77E+00
1225,41699	59,22	-6,77E+00
1225,61499	59,23	-6,78E+00
1225,81702	59,24	-6,79E+00
1226,00403	59,25	-6,79E+00
1226,22705	59,26	-6,80E+00
1226,42004	59,27	-6,80E+00
1226,61096	59,28	-6,81E+00
1226,82495	59,29	-6,81E+00
1227,00696	59,3	-6,82E+00
1227,20105	59,31	-6,82E+00
1227,401	59,32	-6,83E+00
1227,60205	59,33	-6,83E+00
1227,80298	59,34	-6,84E+00
1228,01196	59,35	-6,85E+00
1228,20996	59,36	-6,85E+00
1228,40796	59,37	-6,85E+00
1228,61401	59,38	-6,86E+00
1228,80298	59,39	-6,86E+00
1229,00696	59,4	-6,87E+00
1229,19702	59,41	-6,88E+00
1229,39795	59,42	-6,88E+00
1229,61597	59,43	-6,89E+00
1229,802	59,44	-6,89E+00
1229,99805	59,45	-6,90E+00
